time(s),reference current(A),current(A),cart position(m),pendulum angle(rad)
0.00000, 0.000, 0.000, 0.0000, -3.1416
0.00159, 0.050, 0.000, 0.0000, -3.1416
0.00291, 0.092, 0.000, 0.0000, -3.1416
0.00439, 0.138, 0.000, 0.0000, -3.1416
0.00588, 0.185, 0.015, 0.0000, -3.1416
0.00750, 0.237, 0.059, 0.0000, -3.1416
0.00894, 0.282, 0.107, 0.0000, -3.1416
0.01056, 0.333, 0.107, 0.0000, -3.1416
0.01229, 0.388, 0.176, 0.0000, -3.1416
0.01401, 0.442, 0.244, 0.0000, -3.1416
0.01575, 0.497, 0.303, 0.0001, -3.1416
0.01747, 0.551, 0.371, 0.0001, -3.1416
0.01902, 0.600, 0.435, 0.0001, -3.1416
0.02076, 0.654, 0.435, 0.0002, -3.1416
0.02249, 0.708, 0.503, 0.0002, -3.1416
0.02424, 0.762, 0.576, 0.0003, -3.1408
0.02598, 0.816, 0.645, 0.0003, -3.1408
0.02781, 0.872, 0.703, 0.0004, -3.1408
0.02951, 0.924, 0.767, 0.0005, -3.1400
0.03107, 0.971, 0.830, 0.0006, -3.1400
0.03282, 1.024, 0.830, 0.0008, -3.1400
0.03457, 1.076, 0.894, 0.0009, -3.1392
0.03631, 1.128, 0.952, 0.0011, -3.1392
0.03808, 1.179, 1.011, 0.0013, -3.1392
0.03982, 1.230, 1.074, 0.0015, -3.1377
0.04159, 1.281, 1.138, 0.0018, -3.1369
0.04331, 1.329, 1.201, 0.0021, -3.1361
0.04488, 1.374, 1.201, 0.0024, -3.1353
0.04663, 1.422, 1.265, 0.0027, -3.1353
0.04841, 1.471, 1.319, 0.0031, -3.1353
0.05017, 1.518, 1.382, 0.0035, -3.1345
0.05191, 1.564, 1.446, 0.0039, -3.1330
0.05365, 1.610, 1.509, 0.0044, -3.1322
0.05539, 1.654, 1.563, 0.0049, -3.1298
0.05697, 1.694, 1.607, 0.0055, -3.1282
0.05873, 1.737, 1.607, 0.0060, -3.1275
0.06048, 1.780, 1.651, 0.0066, -3.1251
0.06224, 1.821, 1.705, 0.0073, -3.1251
0.06403, 1.863, 1.748, 0.0080, -3.1235
0.06583, 1.903, 1.802, 0.0087, -3.1204
0.06760, 1.942, 1.875, 0.0096, -3.1204
0.06937, 1.980, 1.929, 0.0104, -3.1180
0.07101, 2.014, 1.963, 0.0113, -3.1149
0.07281, 2.050, 1.963, 0.0121, -3.1133
0.07460, 2.085, 1.993, 0.0132, -3.1110
0.07641, 2.119, 2.022, 0.0142, -3.1070
0.07829, 2.153, 2.090, 0.0154, -3.1055
0.08010, 2.185, 2.134, 0.0165, -3.1047
0.08199, 2.216, 2.164, 0.0177, -3.1007
0.08379, 2.244, 2.198, 0.0190, -3.0976
0.08560, 2.272, 2.252, 0.0203, -3.0945
0.08737, 2.297, 2.276, 0.0217, -3.0905
0.08901, 2.319, 2.286, 0.0232, -3.0874
0.09080, 2.342, 2.286, 0.0245, -3.0858
0.09263, 2.364, 2.335, 0.0261, -3.0819
0.09443, 2.384, 2.369, 0.0276, -3.0772
0.09625, 2.403, 2.388, 0.0293, -3.0740
0.09805, 2.420, 2.418, 0.0311, -3.0701
0.09992, 2.436, 2.432, 0.0329, -3.0662
0.10173, 2.449, 2.457, 0.0348, -3.0615
0.10350, 2.461, 2.471, 0.0366, -3.0583
0.10532, 2.472, 2.481, 0.0386, -3.0528
0.10696, 2.480, 2.481, 0.0406, -3.0481
0.10877, 2.488, 2.481, 0.0426, -3.0442
0.11057, 2.493, 2.413, 0.0447, -3.0387
0.11239, 2.497, 2.330, 0.0469, -3.0348
0.11422, 2.499, 2.159, 0.0491, -3.0301
0.11599, 2.500, 2.105, 0.0514, -3.0261
0.11780, 2.499, 1.983, 0.0537, -3.0199
0.11959, 2.496, 1.924, 0.0561, -3.0136
0.12135, 2.491, 1.792, 0.0585, -3.0096
0.12299, 2.485, 1.729, 0.0609, -3.0026
0.12478, 2.478, 1.729, 0.0631, -2.9979
0.12656, 2.468, 1.651, 0.0656, -2.9924
0.12837, 2.456, 1.573, 0.0682, -2.9877
0.13018, 2.443, 1.538, 0.0708, -2.9822
0.13198, 2.428, 1.426, 0.0734, -2.9774
0.13380, 2.411, 1.421, 0.0760, -2.9712
0.13559, 2.392, 1.333, 0.0786, -2.9641
0.13736, 2.372, 1.289, 0.0813, -2.9586
0.13901, 2.352, 1.265, 0.0840, -2.9523
0.14080, 2.328, 1.265, 0.0865, -2.9468
0.14262, 2.302, 1.177, 0.0892, -2.9421
0.14442, 2.275, 1.172, 0.0919, -2.9366
0.14623, 2.246, 1.128, 0.0947, -2.9303
0.14806, 2.214, 1.094, 0.0975, -2.9240
0.14988, 2.182, 1.094, 0.1004, -2.9178
0.15167, 2.148, 1.021, 0.1032, -2.9107
0.15345, 2.112, 0.977, 0.1060, -2.9044
0.15526, 2.074, 0.977, 0.1088, -2.8989
0.15690, 2.039, 0.977, 0.1117, -2.8926
0.15869, 1.998, 0.933, 0.1142, -2.8895
0.16051, 1.955, 0.923, 0.1171, -2.8824
0.16232, 1.911, 0.918, 0.1201, -2.8761
0.16412, 1.865, 0.855, 0.1230, -2.8691
0.16594, 1.818, 0.835, 0.1259, -2.8620
0.16784, 1.766, 0.835, 0.1290, -2.8565
0.16965, 1.716, 0.811, 0.1319, -2.8502
0.17146, 1.664, 0.816, 0.1348, -2.8447
0.17328, 1.610, 0.811, 0.1378, -2.8392
0.17494, 1.560, 0.767, 0.1408, -2.8329
0.17675, 1.504, 0.767, 0.1435, -2.8266
0.17858, 1.446, 0.757, 0.1465, -2.8204
0.18041, 1.387, 0.762, 0.1495, -2.8141
0.18221, 1.328, 0.733, 0.1524, -2.8086
0.18401, 1.267, 0.723, 0.1554, -2.8031
0.18582, 1.205, 0.733, 0.1584, -2.7968
0.18763, 1.141, 0.713, 0.1613, -2.7905
0.18946, 1.076, 0.703, 0.1644, -2.7842
0.19127, 1.011, 0.708, 0.1674, -2.7787
0.19290, 0.951, 0.694, 0.1704, -2.7732
0.19472, 0.883, 0.694, 0.1731, -2.7677
0.19654, 0.815, 0.684, 0.1761, -2.7615
0.19834, 0.746, 0.689, 0.1791, -2.7552
0.20018, 0.675, 0.679, 0.1821, -2.7489
0.20198, 0.605, 0.659, 0.1851, -2.7434
0.20380, 0.534, 0.659, 0.1882, -2.7379
0.20562, 0.462, 0.654, 0.1912, -2.7324
0.20743, 0.390, 0.625, 0.1943, -2.7269
0.20907, 0.324, 0.567, 0.1972, -2.7206
0.21096, 0.247, 0.449, 0.2004, -2.7143
0.21287, 0.170, 0.449, 0.2035, -2.7081
0.21469, 0.096, 0.322, 0.2062, -2.7033
0.21650, 0.022, 0.205, 0.2092, -2.6986
0.21830, -0.052, 0.122, 0.2121, -2.6931
0.22013, -0.127, 0.063, 0.2151, -2.6884
0.22195, -0.202, 0.005, 0.2180, -2.6829
0.22376, -0.276, -0.034, 0.2210, -2.6766
0.22561, -0.352, -0.088, 0.2239, -2.6711
0.22744, -0.427, -0.195, 0.2268, -2.6656
0.22928, -0.502, -0.269, 0.2296, -2.6609
0.23093, -0.568, -0.352, 0.2325, -2.6562
0.23278, -0.643, -0.352, 0.2350, -2.6531
0.23460, -0.716, -0.464, 0.2377, -2.6484
0.23646, -0.790, -0.518, 0.2405, -2.6429
0.23830, -0.863, -0.620, 0.2432, -2.6374
0.24013, -0.935, -0.713, 0.2458, -2.6334
0.24196, -1.005, -0.762, 0.2484, -2.6287
0.24381, -1.076, -0.884, 0.2510, -2.6248
0.24563, -1.145, -0.938, 0.2535, -2.6217
0.24747, -1.214, -1.026, 0.2559, -2.6169
0.24931, -1.281, -1.109, 0.2583, -2.6138
0.25095, -1.341, -1.172, 0.2607, -2.6114
0.25277, -1.405, -1.172, 0.2627, -2.6067
0.25464, -1.470, -1.275, 0.2650, -2.6036
0.25649, -1.533, -1.319, 0.2672, -2.5997
0.25834, -1.595, -1.421, 0.2694, -2.5965
0.26021, -1.656, -1.460, 0.2715, -2.5942
0.26215, -1.717, -1.568, 0.2735, -2.5918
0.26400, -1.774, -1.607, 0.2755, -2.5895
0.26586, -1.830, -1.695, 0.2773, -2.5871
0.26780, -1.886, -1.748, 0.2792, -2.5840
0.26965, -1.937, -1.807, 0.2809, -2.5832
0.27149, -1.987, -1.880, 0.2826, -2.5824
0.27335, -2.035, -1.934, 0.2841, -2.5792
0.27502, -2.076, -1.993, 0.2857, -2.5777
0.27695, -2.122, -2.042, 0.2871, -2.5769
0.27882, -2.164, -2.042, 0.2885, -2.5753
0.28077, -2.205, -2.100, 0.2896, -2.5745
0.28263, -2.242, -2.139, 0.2908, -2.5745
0.28451, -2.278, -2.173, 0.2919, -2.5745
0.28638, -2.310, -2.232, 0.2929, -2.5737
0.28824, -2.340, -2.291, 0.2938, -2.5737
0.29010, -2.368, -2.310, 0.2946, -2.5730
0.29197, -2.393, -2.335, 0.2954, -2.5737
0.29383, -2.416, -2.374, 0.2960, -2.5753
0.29564, -2.435, -2.413, 0.2966, -2.5777
0.29750, -2.452, -2.452, 0.2970, -2.5777
0.29935, -2.467, -2.471, 0.2974, -2.5785
0.30101, -2.478, -2.486, 0.2977, -2.5800
0.30287, -2.488, -2.486, 0.2979, -2.5816
0.30472, -2.494, -2.501, 0.2980, -2.5832
0.30655, -2.499, -2.520, 0.2981, -2.5847
0.30841, -2.500, -2.520, 0.2981, -2.5863
0.31024, -2.499, -2.515, 0.2979, -2.5895
0.31216, -2.494, -2.525, 0.2977, -2.5934
0.31404, -2.487, -2.535, 0.2974, -2.5965
0.31592, -2.477, -2.545, 0.2971, -2.6005
0.31774, -2.465, -2.510, 0.2967, -2.6028
0.31966, -2.448, -2.496, 0.2961, -2.6059
0.32150, -2.430, -2.481, 0.2955, -2.6083
0.32336, -2.409, -2.496, 0.2948, -2.6122
0.32530, -2.384, -2.496, 0.2941, -2.6177
0.32699, -2.359, -2.486, 0.2933, -2.6224
0.32885, -2.330, -2.486, 0.2924, -2.6272
0.33072, -2.297, -2.432, 0.2915, -2.6319
0.33259, -2.262, -2.359, 0.2905, -2.6350
0.33446, -2.224, -2.335, 0.2894, -2.6397
0.33631, -2.183, -2.335, 0.2883, -2.6460
0.33818, -2.140, -2.310, 0.2870, -2.6491
0.34005, -2.094, -2.237, 0.2858, -2.6562
0.34189, -2.046, -2.173, 0.2845, -2.6625
0.34376, -1.995, -2.159, 0.2831, -2.6680
0.34559, -1.942, -2.100, 0.2816, -2.6735
0.34744, -1.887, -2.022, 0.2801, -2.6798
0.34927, -1.830, -1.988, 0.2786, -2.6853
0.35095, -1.775, -1.924, 0.2770, -2.6916
0.35279, -1.713, -1.924, 0.2755, -2.6986
0.35465, -1.649, -1.861, 0.2738, -2.7041
0.35650, -1.582, -1.792, 0.2721, -2.7104
0.35835, -1.514, -1.724, 0.2704, -2.7175
0.36016, -1.445, -1.656, 0.2686, -2.7230
0.36199, -1.373, -1.558, 0.2667, -2.7308
0.36384, -1.299, -1.499, 0.2648, -2.7387
0.36567, -1.224, -1.411, 0.2629, -2.7457
0.36763, -1.142, -1.338, 0.2609, -2.7544
0.36948, -1.063, -1.265, 0.2589, -2.7607
0.37129, -0.984, -1.162, 0.2569, -2.7670
0.37305, -0.907, -1.089, 0.2548, -2.7764
0.37490, -0.824, -0.977, 0.2527, -2.7827
0.37672, -0.741, -0.977, 0.2509, -2.7905
0.37856, -0.656, -0.918, 0.2488, -2.7984
0.38042, -0.569, -0.796, 0.2467, -2.8054
0.38227, -0.482, -0.728, 0.2446, -2.8133
0.38412, -0.394, -0.606, 0.2425, -2.8219
0.38595, -0.306, -0.527, 0.2404, -2.8290
0.38787, -0.214, -0.415, 0.2382, -2.8376
0.38971, -0.125, -0.322, 0.2361, -2.8447
0.39153, -0.036, -0.225, 0.2340, -2.8526
0.39345, 0.057, -0.122, 0.2318, -2.8620
0.39526, 0.145, -0.049, 0.2297, -2.8698
0.39692, 0.226, 0.015, 0.2276, -2.8769
0.39874, 0.314, 0.015, 0.2258, -2.8848
0.40055, 0.402, 0.068, 0.2238, -2.8926
0.40245, 0.494, 0.171, 0.2217, -2.8997
0.40426, 0.581, 0.264, 0.2198, -2.9083
0.40607, 0.667, 0.386, 0.2178, -2.9154
0.40787, 0.752, 0.474, 0.2159, -2.9225
0.40968, 0.837, 0.581, 0.2141, -2.9311
0.41147, 0.920, 0.674, 0.2122, -2.9374
0.41327, 1.002, 0.772, 0.2104, -2.9452
0.41492, 1.077, 0.874, 0.2087, -2.9539
0.41673, 1.157, 0.874, 0.2071, -2.9594
0.41854, 1.236, 0.972, 0.2054, -2.9672
0.42036, 1.314, 1.055, 0.2038, -2.9743
0.42217, 1.390, 1.153, 0.2022, -2.9798
0.42398, 1.465, 1.241, 0.2007, -2.9861
0.42578, 1.537, 1.328, 0.1993, -2.9955
0.42759, 1.607, 1.426, 0.1978, -3.0018
0.42939, 1.676, 1.509, 0.1965, -3.0081
0.43101, 1.735, 1.587, 0.1952, -3.0144
0.43284, 1.800, 1.587, 0.1940, -3.0183
0.43468, 1.864, 1.661, 0.1930, -3.0246
0.43648, 1.923, 1.744, 0.1919, -3.0324
0.43841, 1.984, 1.827, 0.1908, -3.0379
0.44026, 2.040, 1.880, 0.1899, -3.0434
0.44209, 2.092, 1.939, 0.1890, -3.0497
0.44391, 2.141, 2.027, 0.1883, -3.0544
0.44576, 2.189, 2.095, 0.1876, -3.0583
0.44760, 2.232, 2.149, 0.1869, -3.0631
0.44943, 2.273, 2.188, 0.1864, -3.0678
0.45107, 2.307, 2.222, 0.1859, -3.0733
0.45292, 2.342, 2.271, 0.1856, -3.0788
0.45475, 2.373, 2.271, 0.1854, -3.0835
0.45659, 2.401, 2.325, 0.1852, -3.0866
0.45841, 2.425, 2.369, 0.1851, -3.0890
0.46023, 2.446, 2.408, 0.1851, -3.0929
0.46204, 2.464, 2.447, 0.1851, -3.0960
0.46395, 2.479, 2.471, 0.1853, -3.1000
0.46580, 2.489, 2.491, 0.1855, -3.1039
0.46759, 2.496, 2.515, 0.1858, -3.1062
0.46942, 2.500, 2.549, 0.1862, -3.1086
0.47134, 2.499, 2.559, 0.1868, -3.1117
0.47297, 2.496, 2.564, 0.1873, -3.1141
0.47491, 2.488, 2.549, 0.1880, -3.1157
0.47675, 2.477, 2.549, 0.1886, -3.1180
0.47858, 2.462, 2.535, 0.1894, -3.1196
0.48041, 2.443, 2.515, 0.1902, -3.1204
0.48223, 2.421, 2.496, 0.1912, -3.1227
0.48406, 2.396, 2.515, 0.1922, -3.1235
0.48590, 2.366, 2.510, 0.1932, -3.1243
0.48775, 2.333, 2.466, 0.1943, -3.1275
0.48958, 2.296, 2.408, 0.1955, -3.1282
0.49139, 2.256, 2.383, 0.1968, -3.1282
0.49326, 2.212, 2.364, 0.1981, -3.1298
0.49493, 2.169, 2.310, 0.1995, -3.1282
0.49679, 2.118, 2.310, 0.2008, -3.1267
0.49863, 2.065, 2.252, 0.2023, -3.1298
0.50045, 2.008, 2.217, 0.2038, -3.1290
0.50229, 1.948, 2.154, 0.2054, -3.1314
0.50412, 1.885, 2.085, 0.2070, -3.1322
0.50594, 1.820, 2.027, 0.2087, -3.1290
0.50777, 1.751, 1.944, 0.2105, -3.1290
0.50958, 1.680, 1.875, 0.2123, -3.1282
0.51139, 1.607, 1.797, 0.2141, -3.1267
0.51303, 1.538, 1.734, 0.2159, -3.1275
0.51485, 1.459, 1.734, 0.2178, -3.1275
0.51666, 1.379, 1.646, 0.2195, -3.1259
0.51848, 1.295, 1.548, 0.2215, -3.1259
0.52033, 1.209, 1.455, 0.2235, -3.1251
0.52211, 1.123, 1.358, 0.2255, -3.1243
0.52395, 1.033, 1.284, 0.2275, -3.1235
0.52580, 0.940, 1.177, 0.2296, -3.1220
0.52760, 0.848, 1.089, 0.2317, -3.1196
0.52941, 0.754, 0.952, 0.2338, -3.1180
0.53126, 0.657, 0.874, 0.2359, -3.1172
0.53291, 0.570, 0.752, 0.2380, -3.1165
0.53473, 0.472, 0.752, 0.2399, -3.1172
0.53656, 0.373, 0.659, 0.2420, -3.1165
0.53839, 0.273, 0.542, 0.2442, -3.1141
0.54032, 0.167, 0.430, 0.2464, -3.1125
0.54215, 0.066, 0.317, 0.2485, -3.1102
0.54396, -0.034, 0.200, 0.2506, -3.1086
0.54578, -0.135, 0.103, 0.2527, -3.1078
0.54772, -0.242, 0.024, 0.2549, -3.1070
0.54953, -0.342, -0.039, 0.2569, -3.1070
0.55146, -0.448, -0.156, 0.2591, -3.1062
0.55330, -0.549, -0.249, 0.2611, -3.1055
0.55506, -0.644, -0.396, 0.2632, -3.1039
0.55691, -0.743, -0.484, 0.2652, -3.1039
0.55873, -0.840, -0.484, 0.2670, -3.1023
0.56058, -0.937, -0.611, 0.2689, -3.1007
0.56250, -1.036, -0.708, 0.2708, -3.1015
0.56433, -1.128, -0.825, 0.2726, -3.1000
0.56617, -1.220, -0.933, 0.2744, -3.0992
0.56802, -1.309, -1.035, 0.2761, -3.1000
0.56984, -1.396, -1.148, 0.2777, -3.1000
0.57166, -1.480, -1.250, 0.2793, -3.1007
0.57352, -1.563, -1.353, 0.2809, -3.1015
0.57534, -1.643, -1.446, 0.2824, -3.1015
0.57700, -1.713, -1.543, 0.2838, -3.1007
0.57893, -1.791, -1.621, 0.2852, -3.1015
0.58078, -1.863, -1.621, 0.2864, -3.1023
0.58263, -1.931, -1.705, 0.2876, -3.1039
0.58449, -1.997, -1.802, 0.2888, -3.1047
0.58634, -2.059, -1.890, 0.2898, -3.1055
0.58818, -2.117, -1.949, 0.2908, -3.1062
0.59004, -2.171, -2.022, 0.2918, -3.1078
0.59189, -2.222, -2.115, 0.2926, -3.1102
0.59376, -2.269, -2.173, 0.2934, -3.1133
0.59561, -2.312, -2.227, 0.2940, -3.1157
0.59745, -2.350, -2.256, 0.2946, -3.1172
0.59931, -2.385, -2.310, 0.2951, -3.1196
0.60099, -2.412, -2.364, 0.2955, -3.1235
0.60284, -2.438, -2.364, 0.2958, -3.1259
0.60479, -2.460, -2.403, 0.2960, -3.1290
0.60662, -2.477, -2.442, 0.2962, -3.1330
0.60857, -2.490, -2.471, 0.2962, -3.1353
0.61044, -2.497, -2.496, 0.2962, -3.1384
0.61231, -2.500, -2.510, 0.2961, -3.1424
0.61414, -2.498, -2.525, 0.2959, -3.1479
0.61600, -2.491, -2.530, 0.2956, -3.1534
0.61786, -2.480, -2.535, 0.2952, -3.1581
0.61970, -2.464, -2.549, 0.2947, -3.1628
0.62155, -2.443, -2.549, 0.2942, -3.1667
0.62351, -2.416, -2.549, 0.2936, -3.1706
0.62537, -2.386, -2.491, 0.2929, -3.1769
0.62704, -2.355, -2.462, 0.2922, -3.1832
0.62889, -2.316, -2.388, 0.2913, -3.1895
0.63086, -2.269, -2.388, 0.2904, -3.1950
0.63271, -2.221, -2.364, 0.2895, -3.1997
0.63459, -2.168, -2.359, 0.2885, -3.2052
0.63646, -2.111, -2.330, 0.2874, -3.2123
0.63832, -2.049, -2.247, 0.2863, -3.2193
0.64018, -1.984, -2.164, 0.2851, -3.2272
0.64202, -1.915, -2.120, 0.2838, -3.2343
0.64387, -1.842, -2.071, 0.2825, -3.2382
0.64572, -1.766, -1.973, 0.2812, -3.2445
0.64765, -1.682, -1.875, 0.2797, -3.2515
0.64952, -1.597, -1.827, 0.2783, -3.2570
0.65137, -1.510, -1.734, 0.2768, -3.2665
0.65303, -1.430, -1.626, 0.2753, -3.2759
0.65497, -1.333, -1.543, 0.2736, -3.2830
0.65683, -1.236, -1.543, 0.2720, -3.2892
0.65869, -1.138, -1.446, 0.2706, -3.2940
0.66053, -1.038, -1.338, 0.2690, -3.3010
0.66237, -0.935, -1.241, 0.2674, -3.3097
0.66420, -0.831, -1.123, 0.2657, -3.3183
0.66607, -0.724, -1.006, 0.2640, -3.3269
0.66791, -0.616, -0.879, 0.2622, -3.3332
0.66977, -0.506, -0.767, 0.2605, -3.3379
0.67160, -0.396, -0.654, 0.2589, -3.3466
0.67343, -0.286, -0.542, 0.2572, -3.3544
0.67526, -0.175, -0.405, 0.2555, -3.3615
0.67693, -0.073, -0.278, 0.2538, -3.3701
0.67878, 0.041, -0.278, 0.2523, -3.3756
0.68061, 0.153, -0.147, 0.2506, -3.3819
0.68242, 0.264, -0.059, 0.2490, -3.3906
0.68424, 0.375, 0.020, 0.2474, -3.3968
0.68614, 0.490, 0.117, 0.2457, -3.4047
0.68795, 0.599, 0.239, 0.2442, -3.4126
0.68977, 0.707, 0.376, 0.2426, -3.4188
0.69160, 0.815, 0.503, 0.2411, -3.4251
0.69340, 0.919, 0.615, 0.2397, -3.4314
0.69506, 1.014, 0.733, 0.2382, -3.4353
0.69689, 1.117, 0.860, 0.2369, -3.4424
0.69879, 1.221, 0.860, 0.2356, -3.4510
0.70061, 1.319, 0.987, 0.2343, -3.4581
0.70252, 1.418, 1.104, 0.2330, -3.4636
0.70432, 1.509, 1.211, 0.2319, -3.4691
0.70615, 1.598, 1.328, 0.2308, -3.4730
0.70797, 1.684, 1.441, 0.2298, -3.4785
0.70979, 1.767, 1.534, 0.2288, -3.4840
0.71158, 1.844, 1.636, 0.2279, -3.4895
0.71339, 1.919, 1.739, 0.2271, -3.4950
0.71505, 1.984, 1.851, 0.2263, -3.5005
0.71686, 2.051, 1.851, 0.2256, -3.5060
0.71870, 2.115, 1.924, 0.2251, -3.5084
0.72054, 2.175, 1.988, 0.2245, -3.5115
0.72237, 2.229, 2.051, 0.2241, -3.5154
0.72422, 2.280, 2.129, 0.2237, -3.5194
0.72606, 2.325, 2.212, 0.2234, -3.5249
0.72790, 2.366, 2.276, 0.2232, -3.5288
0.72973, 2.401, 2.344, 0.2231, -3.5311
0.73155, 2.430, 2.393, 0.2231, -3.5335
0.73337, 2.455, 2.432, 0.2232, -3.5359
0.73504, 2.473, 2.432, 0.2234, -3.5398
0.73686, 2.487, 2.432, 0.2236, -3.5421
0.73871, 2.496, 2.471, 0.2239, -3.5437
0.74054, 2.500, 2.505, 0.2243, -3.5461
0.74236, 2.498, 2.530, 0.2248, -3.5469
0.74421, 2.491, 2.559, 0.2253, -3.5484
0.74604, 2.478, 2.564, 0.2259, -3.5500
0.74786, 2.459, 2.564, 0.2266, -3.5524
0.74971, 2.435, 2.525, 0.2273, -3.5539
0.75154, 2.406, 2.496, 0.2282, -3.5547
0.75335, 2.372, 2.452, 0.2291, -3.5547
0.75500, 2.336, 2.466, 0.2301, -3.5539
0.75686, 2.290, 2.466, 0.2311, -3.5539
0.75870, 2.240, 2.452, 0.2321, -3.5555
0.76054, 2.184, 2.398, 0.2332, -3.5571
0.76239, 2.123, 2.315, 0.2344, -3.5571
0.76423, 2.058, 2.261, 0.2358, -3.5563
0.76605, 1.988, 2.212, 0.2371, -3.5555
0.76795, 1.911, 2.144, 0.2385, -3.5539
0.76980, 1.831, 2.061, 0.2400, -3.5539
0.77163, 1.747, 1.988, 0.2414, -3.5539
0.77346, 1.660, 1.900, 0.2430, -3.5531
0.77526, 1.570, 1.788, 0.2445, -3.5531
0.77691, 1.484, 1.690, 0.2462, -3.5508
0.77874, 1.386, 1.690, 0.2476, -3.5492
0.78057, 1.284, 1.602, 0.2493, -3.5476
0.78240, 1.180, 1.495, 0.2510, -3.5461
0.78420, 1.074, 1.387, 0.2528, -3.5453
0.78602, 0.964, 1.265, 0.2545, -3.5445
0.78785, 0.851, 1.138, 0.2563, -3.5429
0.78966, 0.738, 1.016, 0.2581, -3.5406
0.79148, 0.622, 0.894, 0.2599, -3.5382
0.79330, 0.504, 0.752, 0.2618, -3.5359
0.79504, 0.391, 0.630, 0.2637, -3.5335
0.79684, 0.273, 0.630, 0.2655, -3.5335
0.79867, 0.151, 0.493, 0.2672, -3.5319
0.80052, 0.028, 0.361, 0.2691, -3.5304
0.80234, -0.093, 0.234, 0.2708, -3.5280
0.80416, -0.214, 0.098, 0.2727, -3.5241
0.80598, -0.336, 0.015, 0.2745, -3.5217
0.80791, -0.463, -0.088, 0.2764, -3.5202
0.80973, -0.582, -0.220, 0.2782, -3.5186
0.81154, -0.699, -0.352, 0.2799, -3.5178
0.81338, -0.817, -0.503, 0.2816, -3.5162
0.81506, -0.923, -0.630, 0.2834, -3.5139
0.81692, -1.038, -0.767, 0.2850, -3.5107
0.81876, -1.149, -0.767, 0.2865, -3.5092
0.82061, -1.259, -0.899, 0.2881, -3.5068
0.82244, -1.364, -1.016, 0.2897, -3.5060
0.82428, -1.467, -1.148, 0.2911, -3.5060
0.82611, -1.565, -1.270, 0.2926, -3.5029
0.82794, -1.660, -1.387, 0.2939, -3.5013
0.82981, -1.752, -1.499, 0.2953, -3.4997
0.83165, -1.839, -1.617, 0.2965, -3.4982
0.83348, -1.921, -1.724, 0.2977, -3.4974
0.83534, -2.000, -1.832, 0.2988, -3.4982
0.83700, -2.066, -1.895, 0.2999, -3.4966
0.83883, -2.134, -1.895, 0.3009, -3.4958
0.84077, -2.200, -1.993, 0.3017, -3.4950
0.84263, -2.257, -2.100, 0.3026, -3.4934
0.84448, -2.309, -2.164, 0.3033, -3.4927
0.84632, -2.354, -2.227, 0.3040, -3.4934
0.84821, -2.395, -2.276, 0.3046, -3.4942
0.85004, -2.428, -2.335, 0.3051, -3.4942
0.85188, -2.455, -2.403, 0.3055, -3.4942
0.85374, -2.476, -2.442, 0.3058, -3.4934
0.85558, -2.490, -2.481, 0.3060, -3.4942
0.85741, -2.498, -2.525, 0.3062, -3.4958
0.85926, -2.500, -2.540, 0.3062, -3.4966
0.86092, -2.496, -2.540, 0.3063, -3.4989
0.86285, -2.484, -2.540, 0.3061, -3.4997
0.86471, -2.466, -2.515, 0.3060, -3.5005
0.86657, -2.442, -2.510, 0.3057, -3.5005
0.86843, -2.411, -2.510, 0.3054, -3.5021
0.87027, -2.373, -2.505, 0.3050, -3.5044
0.87223, -2.327, -2.476, 0.3046, -3.5076
0.87407, -2.277, -2.457, 0.3040, -3.5099
0.87593, -2.220, -2.418, 0.3034, -3.5115
0.87781, -2.157, -2.374, 0.3028, -3.5139
0.87964, -2.089, -2.281, 0.3021, -3.5154
0.88147, -2.016, -2.188, 0.3013, -3.5178
