time(s),reference current(A),current(A),rw angle(rad),pendulum angle(rad)
0.00000, 0.000, 0.000, 0.0000, -3.1416, 0.0078, -1.0062, 0.0000, -0.9984
0.00147, 0.023, -0.001, 0.0000, -3.1416, 0.0156, -0.9984, 0.0000, -0.9672
0.00352, 0.055, -0.001, 0.0000, -3.1416, 0.0234, -0.9984, 0.0078, -0.9750
0.00490, 0.077, 0.000, 0.0000, -3.1416, 0.0078, -0.9984, -0.0078, -0.9828
0.00641, 0.101, 0.001, 0.0000, -3.1416, 0.0000, -0.9906, -0.0156, -0.9906
0.00794, 0.125, 0.021, 0.0000, -3.1416, 0.0000, -0.9516, 0.0000, -0.9984
0.00949, 0.149, 0.058, 0.0000, -3.1416, 0.0156, -0.9672, 0.0000, -0.9828
0.01149, 0.181, 0.091, 0.0000, -3.1416, 0.0000, -0.9750, 0.0000, -0.9906
0.01343, 0.212, 0.123, 0.0000, -3.1416, 0.0000, -0.9906, 0.0000, -0.9750
0.01550, 0.245, 0.152, 0.0000, -3.1416, 0.0000, -0.9906, 0.0000, -0.9828
0.01748, 0.276, 0.179, 0.0000, -3.1416, 0.0000, -0.9828, -0.0234, -0.9750
0.01946, 0.307, 0.212, 0.0000, -3.1416, 0.0000, -0.9828, 0.0000, -0.9828
0.02142, 0.338, 0.244, 0.0000, -3.1416, 0.0000, -0.9750, -0.0234, -0.9828
0.02345, 0.371, 0.275, 0.0000, -3.1416, 0.0000, -0.9828, -0.0234, -0.9828
0.02549, 0.403, 0.305, 0.0000, -3.1416, 0.0000, -0.9828, 0.0000, -0.9828
0.02746, 0.434, 0.337, 0.0000, -3.1416, 0.0000, -0.9984, 0.0000, -0.9906
0.02945, 0.466, 0.370, 0.0000, -3.1416, 0.0000, -0.9672, 0.0000, -0.9984
0.03141, 0.497, 0.403, 0.0000, -3.1416, 0.0000, -0.9828, 0.0000, -0.9906
0.03350, 0.531, 0.433, 0.0000, -3.1416, 0.0000, -0.9906, -0.0312, -0.9828
0.03550, 0.562, 0.464, 0.0000, -3.1416, -0.0156, -0.9828, -0.0156, -0.9828
0.03748, 0.594, 0.496, 0.0000, -3.1416, -0.0234, -0.9828, -0.0312, -0.9594
0.03948, 0.626, 0.528, 0.0000, -3.1416, -0.0156, -0.9750, -0.0312, -0.9828
0.04146, 0.657, 0.560, 0.0000, -3.1416, 0.0000, -0.9828, -0.0312, -0.9828
0.04351, 0.690, 0.592, 0.0000, -3.1416, -0.0312, -0.9750, -0.0156, -0.9672
0.04552, 0.722, 0.623, 0.0000, -3.1416, -0.0234, -0.9984, -0.0234, -0.9750
0.04746, 0.753, 0.656, 0.0000, -3.1416, 0.0000, -0.9750, -0.0312, -0.9516
0.04947, 0.785, 0.690, 0.0000, -3.1416, -0.0156, -0.9906, 0.0000, -0.9750
0.05150, 0.818, 0.720, 0.0000, -3.1416, 0.0000, -0.9906, 0.0000, -0.9984
0.05347, 0.849, 0.751, 0.0000, -3.1416, -0.0312, -0.9672, -0.0156, -0.9672
0.05547, 0.881, 0.784, 0.0000, -3.1416, 0.0000, -0.9750, -0.0546, -0.9672
0.05746, 0.913, 0.816, 0.0000, -3.1416, 0.0000, -0.9828, -0.0156, -0.9984
0.05946, 0.945, 0.848, 0.0000, -3.1416, -0.0312, -0.9906, -0.0156, -0.9906
0.06153, 0.978, 0.879, 0.0000, -3.1416, 0.0000, -0.9984, -0.0156, -0.9828
0.06348, 1.009, 0.910, 0.0000, -3.1416, -0.0234, -0.9750, -0.0234, -0.9750
0.06546, 1.041, 0.944, 0.0000, -3.1416, -0.0312, -0.9516, -0.0156, -0.9906
0.06752, 1.074, 0.976, 0.0000, -3.1416, 0.0000, -0.9828, -0.0312, -1.0296
0.06952, 1.106, 1.006, 0.0000, -3.1416, 0.0000, -0.9906, -0.0312, -0.9750
0.07148, 1.137, 1.039, 0.0000, -3.1416, -0.0156, -0.9672, 0.0000, -0.9750
0.07346, 1.168, 1.071, 0.0000, -3.1422, -0.0156, -0.9984, -0.0156, -0.9906
0.07547, 1.200, 1.103, 0.0000, -3.1422, 0.0000, -0.9750, -0.0312, -0.9828
0.07745, 1.232, 1.135, 0.0000, -3.1422, -0.0312, -0.9750, -0.0156, -0.9750
0.07951, 1.265, 1.166, 0.0000, -3.1422, -0.0078, -0.9828, 0.0000, -0.9984
0.08149, 1.296, 1.198, 0.0000, -3.1422, 0.0000, -0.9906, -0.0390, -0.9672
0.08346, 1.328, 1.233, 0.0000, -3.1422, -0.0234, -0.9750, -0.0312, -0.9594
0.08552, 1.361, 1.264, 0.0000, -3.1422, -0.0312, -0.9984, -0.0390, -0.9828
0.08753, 1.392, 1.293, 0.0000, -3.1428, 0.0000, -0.9750, -0.0312, -0.9828
0.08951, 1.424, 1.325, 0.0000, -3.1428, -0.0156, -0.9672, -0.0312, -0.9672
0.09147, 1.455, 1.358, 0.0000, -3.1428, -0.0234, -0.9984, -0.0390, -0.9906
0.09347, 1.487, 1.391, 0.0000, -3.1428, -0.0234, -0.9828, -0.0078, -0.9750
0.09552, 1.519, 1.421, 0.0000, -3.1435, -0.0546, -0.9984, 0.0000, -0.9750
0.09749, 1.550, 1.452, 0.0000, -3.1435, 0.0000, -0.9984, -0.0156, -0.9828
0.09946, 1.581, 1.484, 0.0000, -3.1435, -0.0312, -0.9906, -0.0156, -0.9906
0.10146, 1.613, 1.519, 0.0000, -3.1435, -0.0234, -0.9594, -0.0390, -0.9906
0.10351, 1.645, 1.549, 0.0000, -3.1441, -0.0468, -0.9984, -0.0156, -0.9906
0.10554, 1.677, 1.578, 0.0000, -3.1441, -0.0468, -0.9906, -0.0156, -0.9984
0.10750, 1.708, 1.611, 0.0000, -3.1441, -0.0234, -0.9906, -0.0234, -0.9672
0.10947, 1.739, 1.643, 0.0000, -3.1447, -0.0468, -0.9906, -0.0390, -0.9750
0.11149, 1.771, 1.676, 0.0000, -3.1447, -0.0624, -0.9984, -0.0234, -0.9828
0.11352, 1.802, 1.704, 0.0000, -3.1447, -0.0468, -0.9906, -0.0234, -0.9828
0.11552, 1.834, 1.736, 0.0000, -3.1454, -0.0312, -0.9906, -0.0312, -0.9750
0.11747, 1.864, 1.768, 0.0000, -3.1454, -0.0312, -0.9516, 0.0000, -0.9594
0.11944, 1.895, 1.802, 0.0000, -3.1460, -0.0312, -0.9984, -0.0234, -0.9672
0.12154, 1.927, 1.834, 0.0000, -3.1460, -0.0312, -0.9750, -0.0312, -0.9750
0.12352, 1.958, 1.862, 0.0000, -3.1466, -0.0234, -0.9672, -0.0156, -0.9828
0.12552, 1.989, 1.898, 0.1309, -3.1466, -0.0624, -0.9906, -0.0156, -0.9984
0.12752, 2.020, 1.931, 0.1309, -3.1466, -0.0078, -0.9906, -0.0390, -0.9828
0.12953, 2.051, 1.959, 0.1309, -3.1472, -0.0858, -0.9750, -0.0312, -0.9594
0.13156, 2.083, 1.987, 0.1309, -3.1472, -0.0312, -0.9984, -0.0624, -0.9828
0.13353, 2.113, 2.020, 0.1309, -3.1479, -0.0312, -0.9672, -0.0390, -0.9828
0.13554, 2.144, 2.049, 0.1309, -3.1479, -0.0780, -0.9750, -0.0390, -0.9594
0.13755, 2.175, 2.079, 0.1309, -3.1485, -0.0234, -0.9828, -0.0468, -0.9828
0.13955, 2.205, 2.109, 0.1309, -3.1491, -0.0468, -0.9672, -0.0546, -0.9594
0.14154, 2.236, 2.140, 0.1309, -3.1491, -0.0624, -0.9906, -0.0312, -0.9750
0.14353, 2.266, 2.171, 0.1309, -3.1498, -0.0390, -0.9828, -0.0468, -0.9906
0.14551, 2.296, 2.201, 0.1309, -3.1498, -0.0624, -0.9672, -0.0390, -0.9906
0.14754, 2.327, 2.233, 0.1309, -3.1504, -0.0390, -0.9906, -0.0468, -0.9828
0.14955, 2.357, 2.262, 0.1309, -3.1510, -0.0312, -0.9828, -0.0390, -0.9984
0.15152, 2.387, 2.293, 0.1309, -3.1510, -0.0624, -0.9828, -0.0546, -0.9516
0.15353, 2.417, 2.324, 0.1309, -3.1516, -0.0624, -0.9828, -0.0468, -0.9750
0.15552, 2.447, 2.290, 0.2618, -3.1523, -0.0468, -0.9750, -0.0312, -0.9984
0.15754, 2.477, 2.395, 0.2618, -3.1529, -0.0936, -0.9984, -0.0468, -0.9672
0.15952, 2.507, 2.421, 0.2618, -3.1529, -0.0234, -0.9750, -0.0702, -0.9750
0.16148, 2.536, 2.448, 0.2618, -3.1535, -0.0780, -0.9906, -0.0312, -0.9672
0.16348, 2.565, 2.474, 0.2618, -3.1542, -0.0702, -0.9828, -0.0546, -0.9906
0.16554, 2.596, 2.507, 0.2618, -3.1548, -0.0312, -0.9750, -0.0624, -0.9750
0.16753, 2.625, 2.533, 0.2618, -3.1554, -0.0702, -0.9906, -0.0390, -0.9984
0.16954, 2.655, 2.563, 0.2618, -3.1554, -0.0546, -0.9750, -0.0390, -0.9828
0.17149, 2.683, 2.593, 0.2618, -3.1560, -0.0234, -0.9906, -0.0624, -0.9906
0.17348, 2.712, 2.623, 0.2618, -3.1567, -0.0624, -1.0140, -0.0624, -0.9828
0.17554, 2.742, 2.654, 0.2618, -3.1573, -0.0468, -0.9672, -0.0312, -0.9828
0.17754, 2.771, 2.682, 0.3927, -3.1579, -0.0390, -0.9984, -0.0702, -0.9828
0.17947, 2.799, 2.724, 0.3927, -3.1586, -0.0624, -0.9906, -0.0702, -0.9750
0.18149, 2.828, 2.744, 0.3927, -3.1592, -0.0624, -0.9672, -0.0624, -0.9828
0.18354, 2.858, 2.773, 0.3927, -3.1598, -0.0858, -0.9984, -0.0390, -0.9906
0.18551, 2.886, 2.799, 0.3927, -3.1604, -0.1014, -0.9828, -0.0468, -0.9672
0.18754, 2.915, 2.826, 0.3927, -3.1611, -0.0468, -0.9828, -0.0780, -0.9828
0.18950, 2.942, 2.856, 0.3927, -3.1617, -0.0936, -0.9984, -0.0780, -0.9906
0.19152, 2.971, 2.883, 0.3927, -3.1623, -0.0468, -0.9750, -0.0468, -0.9594
0.19352, 2.999, 2.916, 0.3927, -3.1636, -0.0234, -0.9750, 0.0000, -0.9906
0.19552, 3.027, 2.925, 0.5236, -3.1642, -0.0702, -1.0140, -0.0624, -0.9984
0.19751, 3.055, 2.980, 0.5236, -3.1648, -0.0312, -0.9750, -0.0702, -0.9750
0.19950, 3.082, 2.999, 0.5236, -3.1655, -0.0546, -0.9906, -0.0780, -0.9906
0.20153, 3.110, 3.026, 0.5236, -3.1661, -0.1326, -1.0062, -0.0312, -0.9750
0.20354, 3.138, 3.051, 0.5236, -3.1667, -0.0624, -0.9750, -0.0936, -0.9750
0.20553, 3.165, 3.082, 0.5236, -3.1680, -0.0546, -0.9750, -0.0702, -0.9906
0.20754, 3.193, 3.113, 0.5236, -3.1686, -0.0858, -1.0062, -0.0780, -0.9750
0.20953, 3.220, 3.105, 0.6545, -3.1692, -0.0390, -0.9516, -0.0312, -0.9672
0.21148, 3.246, 3.170, 0.6545, -3.1699, -0.0780, -0.9828, -0.1014, -0.9906
0.21349, 3.273, 3.191, 0.6545, -3.1711, -0.0702, -0.9984, -0.0936, -0.9828
0.21549, 3.300, 3.220, 0.6545, -3.1718, -0.1014, -0.9906, -0.0234, -0.9906
0.21750, 3.326, 3.245, 0.6545, -3.1724, -0.0702, -0.9984, -0.0936, -0.9828
0.21949, 3.353, 3.274, 0.6545, -3.1736, -0.0546, -0.9360, -0.0702, -0.9750
0.22155, 3.380, 3.240, 0.7854, -3.1743, -0.1014, -0.9750, -0.0156, -0.9750
0.22353, 3.406, 3.342, 0.7854, -3.1749, -0.1326, -0.9984, -0.0780, -0.9750
0.22555, 3.432, 3.363, 0.7854, -3.1762, -0.0390, -0.9594, -0.1014, -0.9750
0.22749, 3.457, 3.381, 0.7854, -3.1768, -0.1716, -1.0218, -0.0702, -0.9828
0.22949, 3.483, 3.406, 0.7854, -3.1780, -0.1014, -0.9906, -0.0546, -0.9750
0.23150, 3.508, 3.436, 0.7854, -3.1787, -0.0312, -0.9750, -0.0936, -0.9594
0.23349, 3.534, 3.454, 0.9163, -3.1799, -0.1794, -0.9984, -0.0390, -0.9672
0.23553, 3.560, 3.497, 0.9163, -3.1805, -0.0624, -0.9984, -0.0780, -0.9828
0.23750, 3.584, 3.509, 0.9163, -3.1818, -0.0702, -0.9672, -0.0780, -0.9672
0.23955, 3.610, 3.533, 0.9163, -3.1824, -0.1404, -0.9984, -0.1170, -0.9984
0.24150, 3.634, 3.563, 0.9163, -3.1831, -0.0468, -0.9672, -0.0234, -1.0062
0.24347, 3.658, 3.521, 1.0472, -3.1843, -0.1092, -0.9672, -0.0312, -0.9828
0.24548, 3.683, 3.624, 1.0472, -3.1856, -0.1092, -1.0140, -0.1170, -0.9828
0.24751, 3.707, 3.637, 1.0472, -3.1862, -0.0468, -0.9516, -0.1248, -0.9984
0.24949, 3.731, 3.663, 1.0472, -3.1875, -0.1872, -0.9828, -0.0234, -0.9984
0.25153, 3.756, 3.686, 1.0472, -3.1881, -0.0468, -0.9984, -0.1014, -0.9750
0.25354, 3.780, 3.711, 1.1781, -3.1893, -0.0468, -0.9516, -0.0780, -0.9750
0.25550, 3.803, 3.745, 1.1781, -3.1906, -0.1560, -0.9984, -0.1248, -0.9828
0.25752, 3.827, 3.756, 1.1781, -3.1919, -0.0234, -0.9672, -0.0858, -0.9594
0.25955, 3.850, 3.785, 1.1781, -3.1925, -0.1326, -0.9828, -0.0468, -0.9828
0.26150, 3.873, 3.698, 1.3090, -3.1937, -0.0936, -0.9750, -0.1014, -0.9828
0.26355, 3.896, 3.835, 1.3090, -3.1950, -0.0390, -0.9906, -0.0702, -0.9672
0.26554, 3.919, 3.859, 1.3090, -3.1956, -0.0780, -0.9750, -0.1404, -0.9906
0.26753, 3.941, 3.873, 1.3090, -3.1969, -0.1092, -0.9906, -0.0858, -0.9984
0.26954, 3.964, 3.903, 1.3090, -3.1981, -0.0312, -0.9750, -0.0624, -0.9828
0.27153, 3.986, 3.916, 1.4399, -3.1994, -0.1716, -0.9906, -0.0780, -1.0062
0.27353, 4.008, 3.946, 1.4399, -3.2007, -0.0780, -0.9984, -0.1404, -0.9750
0.27550, 4.029, 3.965, 1.4399, -3.2013, -0.1170, -0.9906, -0.0858, -0.9750
0.27751, 4.051, 3.929, 1.5708, -3.2025, -0.0312, -1.0140, -0.0546, -0.9984
0.27949, 4.072, 4.027, 1.5708, -3.2038, -0.1950, -0.9048, -0.0702, -0.9828
0.28153, 4.094, 4.042, 1.5708, -3.2051, -0.1482, -0.9672, -0.2184, -0.9438
0.28351, 4.114, 4.058, 1.5708, -3.2063, -0.0780, -0.9828, -0.0312, -0.9984
0.28556, 4.136, 4.029, 1.7017, -3.2076, -0.1248, -1.0062, -0.0234, -0.9828
0.28747, 4.155, 4.110, 1.7017, -3.2088, -0.0780, -0.9984, -0.1794, -0.9906
0.28953, 4.176, 4.118, 1.7017, -3.2101, -0.1092, -0.9906, -0.1404, -0.9984
0.29154, 4.197, 4.144, 1.7017, -3.2113, -0.1248, -0.9984, 0.0000, -0.9672
0.29349, 4.216, 4.145, 1.8326, -3.2126, -0.0468, -1.0062, -0.0546, -0.9984
0.29554, 4.236, 4.189, 1.8326, -3.2138, -0.0546, -0.9906, -0.2418, -0.9672
0.29750, 4.255, 4.203, 1.8326, -3.2151, -0.0702, -0.9594, -0.1326, -0.9672
0.29955, 4.275, 4.180, 1.9635, -3.2164, -0.1326, -0.9750, 0.0858, -0.9984
0.30155, 4.294, 4.251, 1.9635, -3.2176, -0.1326, -1.0140, -0.1794, -0.9906
0.30350, 4.313, 4.264, 1.9635, -3.2189, -0.0078, -0.9438, -0.2418, -0.9750
0.30554, 4.332, 4.187, 2.0944, -3.2201, -0.2262, -0.9594, -0.0702, -0.9984
0.30750, 4.350, 4.298, 2.0944, -3.2214, -0.2106, -0.9828, -0.0312, -0.9750
0.30954, 4.369, 4.327, 2.0944, -3.2226, -0.0234, -0.9360, -0.3042, -0.9750
0.31151, 4.386, 4.338, 2.0944, -3.2239, -0.1092, -1.0218, -0.0936, -1.0062
0.31354, 4.404, 4.342, 2.2253, -3.2252, -0.2418, -0.9828, 0.0780, -0.9828
0.31552, 4.422, 4.383, 2.2253, -3.2264, 0.0468, -0.9438, -0.2340, -0.9594
0.31754, 4.439, 4.387, 2.2253, -3.2277, -0.1248, -0.9984, -0.2418, -0.9984
0.31947, 4.456, 4.428, 2.3562, -3.2296, -0.3276, -0.9906, 0.0858, -0.9984
0.32150, 4.473, 4.438, 2.3562, -3.2308, 0.0936, -0.9516, -0.2418, -0.9672
0.32353, 4.490, 4.311, 2.4871, -3.2321, -0.1326, -0.9906, -0.1326, -1.0062
0.32548, 4.506, 4.475, 2.4871, -3.2333, -0.4056, -1.0530, -0.0702, -0.9984
0.32752, 4.522, 4.478, 2.4871, -3.2346, 0.0468, -0.9126, -0.1404, -0.9438
0.32954, 4.538, 4.436, 2.6180, -3.2365, -0.0390, -0.9906, -0.0936, -0.9828
0.33152, 4.554, 4.507, 2.6180, -3.2377, -0.3588, -1.0296, -0.0702, -1.0140
0.33348, 4.569, 4.542, 2.6180, -3.2390, 0.0546, -0.8814, -0.2418, -0.9438
0.33555, 4.585, 4.514, 2.7489, -3.2402, -0.1092, -1.0062, 0.0000, -0.9984
0.33746, 4.599, 4.567, 2.7489, -3.2415, -0.2886, -0.9984, -0.1248, -0.9984
0.33954, 4.614, 4.592, 2.7489, -3.2434, 0.1872, -0.8892, -0.2184, -0.9438
0.34149, 4.628, 4.574, 2.8798, -3.2446, -0.3900, -1.0140, 0.0000, -0.9984
0.34347, 4.642, 4.620, 2.8798, -3.2459, -0.1092, -1.0530, -0.1170, -1.0140
0.34553, 4.657, 4.612, 3.0107, -3.2478, 0.1404, -0.8580, -0.1794, -0.9516
0.34754, 4.670, 4.629, 3.0107, -3.2490, -0.4992, -1.0296, 0.0000, -0.9828
0.34951, 4.684, 4.660, 3.0107, -3.2503, 0.0078, -0.9906, -0.2730, -0.9828
0.35147, 4.697, 4.635, 3.1416, -3.2515, 0.0468, -0.8892, -0.0858, -0.9438
0.35348, 4.710, 4.703, 3.1416, -3.2534, -0.4524, -1.0764, -0.1638, -0.9984
0.35551, 4.722, 4.604, 3.2725, -3.2547, 0.3042, -0.9282, -0.1716, -0.9672
0.35749, 4.735, 4.716, 3.2725, -3.2559, -0.3900, -0.9906, -0.0546, -0.9906
0.35953, 4.747, 4.728, 3.2725, -3.2578, -0.0546, -1.0998, -0.1716, -0.9906
0.36153, 4.759, 4.718, 3.4034, -3.2591, -0.0078, -0.7956, -0.0546, -0.9672
0.36351, 4.770, 4.762, 3.4034, -3.2603, -0.3822, -1.0920, -0.2028, -0.9906
0.36548, 4.781, 4.721, 3.5343, -3.2616, 0.0156, -0.9984, -0.0936, -0.9828
0.36751, 4.793, 4.787, 3.5343, -3.2635, -0.1560, -0.8814, -0.0780, -0.9750
0.36948, 4.803, 4.644, 3.6652, -3.2647, -0.1716, -1.0764, -0.2262, -0.9906
0.37148, 4.814, 4.798, 3.6652, -3.2660, -0.1248, -0.9438, 0.0000, -0.9594
0.37352, 4.824, 4.821, 3.6652, -3.2679, -0.0858, -0.9906, -0.2418, -0.9984
0.37549, 4.834, 4.802, 3.7961, -3.2691, -0.2496, -0.9594, -0.0546, -0.9828
0.37755, 4.844, 4.839, 3.7961, -3.2704, 0.0858, -0.9750, -0.2028, -0.9360
0.37949, 4.853, 4.826, 3.9270, -3.2723, -0.1950, -0.9984, -0.1404, -0.9984
0.38150, 4.862, 4.869, 3.9270, -3.2735, -0.2496, -0.9984, -0.1326, -0.9750
0.38353, 4.871, 4.836, 4.0579, -3.2754, 0.0780, -0.9984, -0.2184, -0.9906
0.38552, 4.880, 4.877, 4.0579, -3.2767, -0.2730, -1.0062, -0.1170, -0.9516
0.38751, 4.888, 4.852, 4.1888, -3.2779, 0.0624, -1.0764, -0.0936, -0.9750
0.38952, 4.896, 4.895, 4.1888, -3.2798, -0.1326, -0.9204, -0.2574, -0.9438
0.39156, 4.904, 4.865, 4.3197, -3.2811, -0.0624, -1.0218, -0.0624, -0.9828
0.39353, 4.911, 4.917, 4.3197, -3.2823, -0.2496, -0.9360, -0.2496, -0.9672
0.39548, 4.918, 4.854, 4.4506, -3.2842, -0.0390, -0.9984, -0.1170, -0.9828
0.39752, 4.925, 4.935, 4.4506, -3.2855, -0.3042, -0.9594, -0.2184, -0.9750
0.39951, 4.932, 4.877, 4.5815, -3.2867, 0.0780, -1.0218, -0.0858, -0.9750
0.40150, 4.938, 4.945, 4.5815, -3.2880, -0.3900, -0.9360, -0.2496, -0.9984
0.40348, 4.944, 4.910, 4.7124, -3.2899, 0.0780, -1.0608, -0.1170, -0.9828
0.40550, 4.950, 4.973, 4.7124, -3.2911, -0.2808, -0.9126, -0.1794, -0.9828
0.40752, 4.955, 4.930, 4.8433, -3.2930, 0.0000, -0.9984, -0.0858, -0.9750
0.40946, 4.960, 4.978, 4.8433, -3.2943, -0.1638, -0.9984, -0.2262, -0.9750
0.41154, 4.965, 4.953, 4.9742, -3.2955, -0.1326, -0.9672, -0.0624, -0.9672
0.41351, 4.969, 4.989, 4.9742, -3.2968, -0.2184, -0.9984, -0.2574, -0.9750
0.41550, 4.974, 4.982, 5.1051, -3.2987, -0.0624, -0.9282, -0.0312, -0.9828
0.41752, 4.978, 4.928, 5.2360, -3.2999, -0.2262, -0.9984, -0.3354, -0.9906
0.41955, 4.981, 4.981, 5.2360, -3.3012, -0.2106, -0.9438, -0.0546, -0.9828
0.42151, 4.984, 4.919, 5.3669, -3.3031, -0.2496, -0.9282, -0.2340, -0.9516
0.42355, 4.987, 4.992, 5.3669, -3.3043, -0.0078, -1.0140, -0.1170, -0.9984
0.42552, 4.990, 4.958, 5.4978, -3.3056, -0.1326, -0.9672, -0.1716, -0.9516
0.42750, 4.992, 5.028, 5.4978, -3.3075, -0.0468, -0.9516, -0.1404, -0.9672
0.42951, 4.994, 4.990, 5.6287, -3.3087, -0.2340, -0.9906, -0.1872, -0.9750
0.43151, 4.996, 4.962, 5.7596, -3.3100, -0.0624, -0.9984, -0.2418, -0.9828
0.43353, 4.997, 4.997, 5.7596, -3.3112, -0.2730, -0.9516, -0.1482, -0.9672
0.43549, 4.999, 4.972, 5.8905, -3.3131, -0.1092, -0.9360, -0.1872, -0.9750
0.43750, 4.999, 5.025, 5.8905, -3.3144, -0.2418, -0.9672, -0.2106, -0.9516
0.43953, 5.000, 4.980, 6.0214, -3.3156, -0.0624, -1.0140, -0.1404, -0.9750
0.44151, 5.000, 5.049, 6.0214, -3.3169, -0.1950, -0.9048, -0.2106, -0.9438
0.44349, 5.000, 4.984, 6.1523, -3.3188, -0.1014, -0.9750, -0.1326, -1.0062
0.44554, 4.999, 4.963, 6.2832, -3.3200, -0.2106, -0.9984, -0.1872, -0.9672
0.44753, 4.999, 5.021, 6.2832, -3.3213, -0.0546, -0.9984, -0.1560, -0.9360
0.44954, 4.997, 5.027, 6.4141, -3.3225, -0.1326, -0.9516, -0.1872, -0.9828
0.45151, 4.996, 4.909, 6.5450, -3.3238, -0.1872, -0.9594, -0.1560, -0.9516
0.45351, 4.994, 4.992, 6.5450, -3.3257, -0.2184, -0.9828, -0.1716, -0.9828
0.45556, 4.992, 5.049, 6.6759, -3.3269, -0.1170, -0.9516, -0.2028, -0.9750
0.45755, 4.990, 5.010, 6.6759, -3.3282, -0.1560, -0.9438, -0.2106, -0.9594
0.45949, 4.987, 5.017, 6.8068, -3.3295, -0.1092, -0.9828, -0.1560, -0.9984
0.46153, 4.984, 4.976, 6.9377, -3.3307, -0.1092, -0.9516, -0.1482, -0.9438
0.46354, 4.981, 4.984, 6.9377, -3.3320, -0.0156, -0.9984, -0.2184, -0.9906
0.46549, 4.977, 5.045, 7.0686, -3.3332, -0.1638, -0.9750, -0.1404, -0.9672
0.46750, 4.973, 4.933, 7.1995, -3.3345, -0.1404, -0.9984, -0.1950, -0.9516
0.46952, 4.969, 5.010, 7.1995, -3.3357, 0.0156, -0.9750, -0.1170, -0.9984
0.47155, 4.964, 5.005, 7.3304, -3.3370, -0.2262, -0.9750, -0.1638, -0.9750
0.47354, 4.959, 4.920, 7.4613, -3.3383, -0.0702, -0.9204, -0.2106, -0.9516
0.47553, 4.954, 5.018, 7.4613, -3.3395, -0.0624, -0.9672, -0.1404, -0.9672
0.47748, 4.948, 4.964, 7.5922, -3.3408, -0.2730, -0.9438, -0.1482, -0.9828
0.47950, 4.942, 4.923, 7.7231, -3.3420, -0.0702, -0.9594, -0.1950, -0.9672
0.48154, 4.936, 4.971, 7.7231, -3.3433, 0.0000, -0.9984, -0.1638, -0.9750
0.48346, 4.929, 4.978, 7.8540, -3.3439, -0.1638, -0.9672, -0.1560, -0.9828
0.48549, 4.922, 4.956, 7.9849, -3.3452, 0.0000, -0.9906, -0.1716, -0.9282
0.48752, 4.915, 4.937, 8.1158, -3.3464, -0.1248, -0.9360, -0.2028, -0.9672
0.48950, 4.907, 4.965, 8.1158, -3.3477, -0.3042, -0.9750, -0.1326, -0.9984
0.49155, 4.899, 4.932, 8.2467, -3.3489, -0.0312, -1.0062, -0.2574, -0.9360
0.49354, 4.891, 4.808, 8.3776, -3.3496, -0.1092, -0.8892, -0.1872, -0.9984
0.49555, 4.882, 4.944, 8.3776, -3.3508, -0.2340, -1.0374, -0.2028, -0.9750
0.49752, 4.873, 4.898, 8.5085, -3.3521, -0.1794, -0.8970, -0.2340, -0.9438
0.49956, 4.864, 4.862, 8.6394, -3.3527, -0.2106, -1.0218, -0.1794, -0.9672
0.50155, 4.854, 4.767, 8.7703, -3.3540, -0.0390, -0.9828, -0.2184, -0.9672
0.50350, 4.845, 4.911, 8.7703, -3.3552, -0.2028, -0.9828, -0.2028, -0.9828
0.50553, 4.834, 4.861, 8.9012, -3.3558, -0.0858, -1.0296, -0.1560, -0.9984
0.50754, 4.824, 4.807, 9.0321, -3.3571, -0.0156, -0.9204, -0.1950, -0.9516
0.50949, 4.813, 4.894, 9.0321, -3.3577, -0.0156, -0.9984, -0.2496, -0.9594
0.51154, 4.801, 4.854, 9.1630, -3.3590, -0.3120, -0.9438, -0.1560, -0.9750
0.51355, 4.790, 4.819, 9.2939, -3.3596, -0.0780, -0.9984, -0.2106, -0.9360
0.51553, 4.778, 4.729, 9.4248, -3.3609, -0.0858, -0.8970, -0.2262, -0.9750
0.51749, 4.766, 4.735, 9.5557, -3.3615, -0.0936, -0.9984, -0.2262, -0.9516
0.51956, 4.753, 4.825, 9.5557, -3.3621, -0.2652, -0.9282, -0.1872, -0.9594
0.52151, 4.740, 4.773, 9.6866, -3.3634, -0.2184, -0.9906, -0.1716, -0.9048
