time(s),reference current(A),current(A),rw angle(rad),pendulum angle(rad)
0.00000, 0.000, 0.000, 0.0000, -3.1416
0.00200, 0.019, -0.001, 0.0000, -3.1416
0.00400, 0.038, 0.000, 0.0000, -3.1416
0.00600, 0.057, -0.001, 0.0000, -3.1416
0.00800, 0.076, 0.001, 0.0000, -3.1416
0.01000, 0.094, 0.018, 0.0000, -3.1416
0.01200, 0.113, 0.046, 0.0000, -3.1416
0.01400, 0.132, 0.071, 0.0000, -3.1416
0.01600, 0.151, 0.091, 0.0000, -3.1416
0.01800, 0.170, 0.111, 0.0000, -3.1416
0.02000, 0.189, 0.131, 0.0000, -3.1416
0.02200, 0.208, 0.151, 0.0000, -3.1416
0.02400, 0.227, 0.170, 0.0000, -3.1416
0.02600, 0.246, 0.189, 0.0000, -3.1416
0.02800, 0.265, 0.207, 0.0000, -3.1416
0.03000, 0.284, 0.226, 0.0000, -3.1416
0.03200, 0.303, 0.244, 0.0000, -3.1416
0.03400, 0.322, 0.264, 0.0000, -3.1416
0.03600, 0.341, 0.283, 0.0000, -3.1416
0.03800, 0.360, 0.301, 0.0000, -3.1416
0.04000, 0.379, 0.320, 0.0000, -3.1416
0.04200, 0.398, 0.340, 0.0000, -3.1416
0.04400, 0.417, 0.358, 0.0000, -3.1416
0.04600, 0.436, 0.378, 0.0000, -3.1416
0.04800, 0.455, 0.397, 0.0000, -3.1416
0.05000, 0.474, 0.417, 0.0000, -3.1416
0.05200, 0.494, 0.435, 0.0000, -3.1416
0.05400, 0.513, 0.453, 0.0000, -3.1416
0.05600, 0.532, 0.472, 0.0000, -3.1416
0.05800, 0.551, 0.491, 0.0000, -3.1416
0.06000, 0.570, 0.510, 0.0000, -3.1416
0.06200, 0.589, 0.529, 0.0000, -3.1416
0.06400, 0.608, 0.548, 0.0000, -3.1416
0.06600, 0.627, 0.569, 0.0000, -3.1416
0.06800, 0.646, 0.588, 0.0000, -3.1416
0.07000, 0.665, 0.607, 0.0000, -3.1416
0.07200, 0.685, 0.625, 0.0000, -3.1416
0.07400, 0.704, 0.644, 0.0000, -3.1416
0.07600, 0.723, 0.664, 0.0000, -3.1416
0.07800, 0.742, 0.682, 0.0000, -3.1416
0.08000, 0.761, 0.702, 0.0000, -3.1416
0.08200, 0.780, 0.721, 0.0000, -3.1422
0.08400, 0.799, 0.740, 0.0000, -3.1422
0.08600, 0.818, 0.759, 0.0000, -3.1422
0.08800, 0.838, 0.778, 0.0000, -3.1422
0.09000, 0.857, 0.799, 0.0000, -3.1422
0.09200, 0.876, 0.818, 0.0000, -3.1422
0.09400, 0.895, 0.836, 0.0000, -3.1422
0.09600, 0.914, 0.854, 0.0000, -3.1428
0.09800, 0.933, 0.873, 0.0000, -3.1428
0.10000, 0.952, 0.892, 0.0000, -3.1428
0.10200, 0.971, 0.912, 0.0000, -3.1428
0.10400, 0.991, 0.931, 0.0000, -3.1428
0.10600, 1.010, 0.950, 0.0000, -3.1435
0.10800, 1.029, 0.969, 0.0000, -3.1435
0.11000, 1.048, 0.988, 0.0000, -3.1435
0.11200, 1.067, 1.009, 0.0000, -3.1435
0.11400, 1.086, 1.027, 0.0000, -3.1441
0.11600, 1.105, 1.047, 0.0000, -3.1441
0.11800, 1.124, 1.065, 0.0000, -3.1441
0.12000, 1.143, 1.084, 0.0000, -3.1441
0.12200, 1.162, 1.103, 0.0000, -3.1447
0.12400, 1.182, 1.123, 0.0000, -3.1447
0.12600, 1.201, 1.142, 0.0000, -3.1447
0.12800, 1.220, 1.160, 0.0000, -3.1454
0.13000, 1.239, 1.179, 0.0000, -3.1454
0.13200, 1.258, 1.200, 0.0000, -3.1454
0.13400, 1.277, 1.219, 0.0000, -3.1460
0.13600, 1.296, 1.238, 0.1309, -3.1460
0.13800, 1.315, 1.262, 0.1309, -3.1460
0.14000, 1.334, 1.278, 0.1309, -3.1466
0.14200, 1.353, 1.295, 0.1309, -3.1466
0.14400, 1.372, 1.313, 0.1309, -3.1472
0.14600, 1.391, 1.331, 0.1309, -3.1472
0.14800, 1.410, 1.352, 0.1309, -3.1472
0.15000, 1.429, 1.370, 0.1309, -3.1479
0.15200, 1.448, 1.388, 0.1309, -3.1479
0.15400, 1.467, 1.407, 0.1309, -3.1485
0.15600, 1.486, 1.426, 0.1309, -3.1485
0.15800, 1.505, 1.447, 0.1309, -3.1491
0.16000, 1.524, 1.464, 0.1309, -3.1491
0.16200, 1.542, 1.483, 0.1309, -3.1491
0.16400, 1.561, 1.502, 0.1309, -3.1498
0.16600, 1.580, 1.521, 0.1309, -3.1498
0.16800, 1.599, 1.541, 0.1309, -3.1504
0.17000, 1.618, 1.560, 0.1309, -3.1504
0.17200, 1.637, 1.579, 0.1309, -3.1510
0.17400, 1.656, 1.596, 0.1309, -3.1516
0.17600, 1.674, 1.617, 0.1309, -3.1516
0.17800, 1.693, 1.588, 0.2618, -3.1523
0.18000, 1.712, 1.661, 0.2618, -3.1523
0.18200, 1.731, 1.679, 0.2618, -3.1529
0.18400, 1.750, 1.693, 0.2618, -3.1529
0.18600, 1.768, 1.710, 0.2618, -3.1535
0.18800, 1.787, 1.729, 0.2618, -3.1542
0.19000, 1.806, 1.746, 0.2618, -3.1542
0.19200, 1.824, 1.766, 0.2618, -3.1548
0.19400, 1.843, 1.784, 0.2618, -3.1548
0.19600, 1.862, 1.803, 0.2618, -3.1554
0.19800, 1.880, 1.823, 0.2618, -3.1560
0.20000, 1.899, 1.841, 0.2618, -3.1560
0.20200, 1.917, 1.862, 0.2618, -3.1567
0.20400, 1.936, 1.870, 0.3927, -3.1573
0.20600, 1.955, 1.897, 0.3927, -3.1579
0.20800, 1.973, 1.919, 0.3927, -3.1579
0.21000, 1.992, 1.933, 0.3927, -3.1586
0.21200, 2.010, 1.953, 0.3927, -3.1592
0.21400, 2.029, 1.970, 0.3927, -3.1598
0.21600, 2.047, 1.989, 0.3927, -3.1598
0.21800, 2.065, 2.008, 0.3927, -3.1604
0.22000, 2.084, 2.026, 0.3927, -3.1611
0.22200, 2.102, 2.047, 0.3927, -3.1617
0.22400, 2.121, 2.064, 0.3927, -3.1623
0.22600, 2.139, 2.072, 0.5236, -3.1630
0.22800, 2.157, 2.113, 0.5236, -3.1630
0.23000, 2.176, 2.122, 0.5236, -3.1636
0.23200, 2.194, 2.141, 0.5236, -3.1642
0.23400, 2.212, 2.154, 0.5236, -3.1648
0.23600, 2.230, 2.174, 0.5236, -3.1655
0.23800, 2.248, 2.192, 0.5236, -3.1661
0.24000, 2.267, 2.210, 0.5236, -3.1667
0.24200, 2.285, 2.231, 0.5236, -3.1674
0.24400, 2.303, 2.254, 0.6545, -3.1680
0.24600, 2.321, 2.273, 0.6545, -3.1686
0.24800, 2.339, 2.284, 0.6545, -3.1692
0.25000, 2.357, 2.300, 0.6545, -3.1699
0.25200, 2.375, 2.319, 0.6545, -3.1705
0.25400, 2.393, 2.334, 0.6545, -3.1711
0.25600, 2.411, 2.357, 0.6545, -3.1718
0.25800, 2.429, 2.374, 0.6545, -3.1724
0.26000, 2.447, 2.397, 0.7854, -3.1730
0.26200, 2.465, 2.418, 0.7854, -3.1736
0.26400, 2.482, 2.426, 0.7854, -3.1749
0.26600, 2.500, 2.447, 0.7854, -3.1755
0.26800, 2.518, 2.462, 0.7854, -3.1762
0.27000, 2.536, 2.481, 0.7854, -3.1768
0.27200, 2.553, 2.458, 0.9163, -3.1774
0.27400, 2.571, 2.525, 0.9163, -3.1780
0.27600, 2.589, 2.542, 0.9163, -3.1787
0.27800, 2.606, 2.553, 0.9163, -3.1799
0.28000, 2.624, 2.569, 0.9163, -3.1805
0.28200, 2.641, 2.590, 0.9163, -3.1812
0.28400, 2.659, 2.605, 0.9163, -3.1818
0.28600, 2.676, 2.625, 1.0472, -3.1824
0.28800, 2.694, 2.649, 1.0472, -3.1837
0.29000, 2.711, 2.659, 1.0472, -3.1843
0.29200, 2.728, 2.678, 1.0472, -3.1849
0.29400, 2.746, 2.692, 1.0472, -3.1862
0.29600, 2.763, 2.715, 1.0472, -3.1868
0.29800, 2.780, 2.723, 1.1781, -3.1875
0.30000, 2.797, 2.747, 1.1781, -3.1881
0.30200, 2.815, 2.760, 1.1781, -3.1893
0.30400, 2.832, 2.778, 1.1781, -3.1900
0.30600, 2.849, 2.802, 1.1781, -3.1906
0.30800, 2.866, 2.813, 1.3090, -3.1919
0.31000, 2.883, 2.846, 1.3090, -3.1925
0.31200, 2.900, 2.849, 1.3090, -3.1931
0.31400, 2.917, 2.869, 1.3090, -3.1944
0.31600, 2.934, 2.886, 1.3090, -3.1950
0.31800, 2.951, 2.910, 1.4399, -3.1963
0.32000, 2.967, 2.927, 1.4399, -3.1969
0.32200, 2.984, 2.932, 1.4399, -3.1975
0.32400, 3.001, 2.953, 1.4399, -3.1988
0.32600, 3.018, 2.973, 1.4399, -3.1994
0.32800, 3.034, 2.986, 1.5708, -3.2007
0.33000, 3.051, 3.010, 1.5708, -3.2013
0.33200, 3.067, 3.016, 1.5708, -3.2025
0.33400, 3.084, 3.040, 1.5708, -3.2032
0.33600, 3.100, 3.055, 1.7017, -3.2044
0.33800, 3.117, 3.075, 1.7017, -3.2051
0.34000, 3.133, 3.089, 1.7017, -3.2063
0.34200, 3.149, 3.102, 1.7017, -3.2069
0.34400, 3.166, 3.070, 1.8326, -3.2082
0.34600, 3.182, 3.141, 1.8326, -3.2088
0.34800, 3.198, 3.152, 1.8326, -3.2101
0.35000, 3.214, 3.172, 1.8326, -3.2107
0.35200, 3.230, 3.132, 1.9635, -3.2120
0.35400, 3.246, 3.200, 1.9635, -3.2126
0.35600, 3.262, 3.214, 1.9635, -3.2138
0.35800, 3.278, 3.234, 1.9635, -3.2145
0.36000, 3.294, 3.210, 2.0944, -3.2157
0.36200, 3.310, 3.276, 2.0944, -3.2164
0.36400, 3.326, 3.286, 2.0944, -3.2176
0.36600, 3.342, 3.304, 2.0944, -3.2189
0.36800, 3.357, 3.318, 2.2253, -3.2195
0.37000, 3.373, 3.336, 2.2253, -3.2208
0.37200, 3.389, 3.344, 2.2253, -3.2214
0.37400, 3.404, 3.312, 2.3562, -3.2226
0.37600, 3.420, 3.378, 2.3562, -3.2239
0.37800, 3.435, 3.395, 2.3562, -3.2245
0.38000, 3.451, 3.415, 2.3562, -3.2258
0.38200, 3.466, 3.423, 2.4871, -3.2264
0.38400, 3.481, 3.450, 2.4871, -3.2277
0.38600, 3.496, 3.454, 2.4871, -3.2289
0.38800, 3.512, 3.430, 2.6180, -3.2296
0.39000, 3.527, 3.490, 2.6180, -3.2308
0.39200, 3.542, 3.500, 2.6180, -3.2321
0.39400, 3.557, 3.507, 2.7489, -3.2327
0.39600, 3.572, 3.515, 2.7489, -3.2340
0.39800, 3.587, 3.553, 2.7489, -3.2352
0.40000, 3.602, 3.465, 2.8798, -3.2358
0.40200, 3.616, 3.582, 2.8798, -3.2371
0.40400, 3.631, 3.607, 2.8798, -3.2384
0.40600, 3.646, 3.521, 3.0107, -3.2390
0.40800, 3.660, 3.635, 3.0107, -3.2402
0.41000, 3.675, 3.636, 3.0107, -3.2415
0.41200, 3.689, 3.551, 3.1416, -3.2428
0.41400, 3.704, 3.668, 3.1416, -3.2434
0.41600, 3.718, 3.683, 3.1416, -3.2446
0.41800, 3.733, 3.652, 3.2725, -3.2459
0.42000, 3.747, 3.711, 3.2725, -3.2465
0.42200, 3.761, 3.735, 3.2725, -3.2478
0.42400, 3.775, 3.716, 3.4034, -3.2490
0.42600, 3.789, 3.759, 3.4034, -3.2503
0.42800, 3.803, 3.781, 3.4034, -3.2509
0.43000, 3.817, 3.763, 3.5343, -3.2522
0.43200, 3.831, 3.801, 3.5343, -3.2534
0.43400, 3.845, 3.711, 3.6652, -3.2541
0.43600, 3.859, 3.832, 3.6652, -3.2553
0.43800, 3.872, 3.852, 3.6652, -3.2566
0.44000, 3.886, 3.837, 3.7961, -3.2578
0.44200, 3.900, 3.875, 3.7961, -3.2585
0.44400, 3.913, 3.780, 3.9270, -3.2597
0.44600, 3.927, 3.895, 3.9270, -3.2610
0.44800, 3.940, 3.917, 3.9270, -3.2616
0.45000, 3.953, 3.916, 4.0579, -3.2629
0.45200, 3.966, 3.945, 4.0579, -3.2641
0.45400, 3.980, 3.848, 4.1888, -3.2654
0.45600, 3.993, 3.964, 4.1888, -3.2660
0.45800, 4.006, 3.988, 4.1888, -3.2673
0.46000, 4.019, 3.976, 4.3197, -3.2685
0.46200, 4.032, 4.006, 4.3197, -3.2698
0.46400, 4.044, 4.000, 4.4506, -3.2704
0.46600, 4.057, 4.046, 4.4506, -3.2717
0.46800, 4.070, 3.976, 4.5815, -3.2729
0.47000, 4.083, 4.063, 4.5815, -3.2735
0.47200, 4.095, 3.963, 4.7124, -3.2748
0.47400, 4.108, 4.080, 4.7124, -3.2761
0.47600, 4.120, 4.106, 4.7124, -3.2773
0.47800, 4.132, 4.108, 4.8433, -3.2779
0.48000, 4.145, 4.130, 4.8433, -3.2792
0.48200, 4.157, 4.123, 4.9742, -3.2805
0.48400, 4.169, 4.157, 4.9742, -3.2811
0.48600, 4.181, 4.134, 5.1051, -3.2823
0.48800, 4.193, 4.170, 5.1051, -3.2836
0.49000, 4.205, 4.160, 5.2360, -3.2848
0.49200, 4.217, 4.206, 5.2360, -3.2855
0.49400, 4.228, 4.186, 5.3669, -3.2867
0.49600, 4.240, 4.230, 5.3669, -3.2880
0.49800, 4.252, 4.191, 5.4978, -3.2886
0.50000, 4.263, 4.250, 5.4978, -3.2899
0.50200, 4.275, 4.233, 5.6287, -3.2911
0.50400, 4.286, 4.273, 5.6287, -3.2918
0.50600, 4.297, 4.234, 5.7596, -3.2930
0.50800, 4.309, 4.296, 5.7596, -3.2943
0.51000, 4.320, 4.275, 5.8905, -3.2949
0.51200, 4.331, 4.316, 5.8905, -3.2962
0.51400, 4.342, 4.304, 6.0214, -3.2974
0.51600, 4.353, 4.359, 6.0214, -3.2980
0.51800, 4.364, 4.340, 6.1523, -3.2993
0.52000, 4.374, 4.377, 6.2832, -3.2999
0.52200, 4.385, 4.360, 6.2832, -3.3012
0.52400, 4.396, 4.317, 6.4141, -3.3018
0.52600, 4.406, 4.394, 6.4141, -3.3031
0.52800, 4.416, 4.302, 6.5450, -3.3043
0.53000, 4.427, 4.421, 6.5450, -3.3050
0.53200, 4.437, 4.374, 6.6759, -3.3062
0.53400, 4.447, 4.442, 6.6759, -3.3068
0.53600, 4.457, 4.434, 6.8068, -3.3081
0.53800, 4.467, 4.306, 6.9377, -3.3087
0.54000, 4.477, 4.466, 6.9377, -3.3100
0.54200, 4.487, 4.388, 7.0686, -3.3106
0.54400, 4.497, 4.486, 7.0686, -3.3119
0.54600, 4.507, 4.485, 7.1995, -3.3125
0.54800, 4.516, 4.527, 7.1995, -3.3138
0.55000, 4.526, 4.499, 7.3304, -3.3144
0.55200, 4.535, 4.477, 7.4613, -3.3156
0.55400, 4.545, 4.512, 7.4613, -3.3163
0.55600, 4.554, 4.535, 7.5922, -3.3175
0.55800, 4.563, 4.420, 7.7231, -3.3182
0.56000, 4.572, 4.555, 7.7231, -3.3188
0.56200, 4.581, 4.513, 7.8540, -3.3200
0.56400, 4.590, 4.562, 7.8540, -3.3207
0.56600, 4.599, 4.613, 7.9849, -3.3213
0.56800, 4.608, 4.494, 8.1158, -3.3225
0.57000, 4.616, 4.595, 8.1158, -3.3232
0.57200, 4.625, 4.607, 8.2467, -3.3238
0.57400, 4.633, 4.532, 8.3776, -3.3251
0.57600, 4.642, 4.659, 8.3776, -3.3257
0.57800, 4.650, 4.627, 8.5085, -3.3263
0.58000, 4.658, 4.652, 8.5085, -3.3269
0.58200, 4.666, 4.674, 8.6394, -3.3282
0.58400, 4.674, 4.615, 8.7703, -3.3288
0.58600, 4.682, 4.702, 8.7703, -3.3295
0.58800, 4.690, 4.682, 8.9012, -3.3301
0.59000, 4.698, 4.624, 9.0321, -3.3307
0.59200, 4.706, 4.711, 9.0321, -3.3313
0.59400, 4.713, 4.706, 9.1630, -3.3326
0.59600, 4.721, 4.722, 9.2939, -3.3332
0.59800, 4.728, 4.663, 9.4248, -3.3339
0.60000, 4.735, 4.742, 9.4248, -3.3345
0.60200, 4.743, 4.733, 9.5557, -3.3351
0.60400, 4.750, 4.633, 9.6866, -3.3357
0.60600, 4.757, 4.773, 9.6866, -3.3364
0.60800, 4.764, 4.746, 9.8175, -3.3370
0.61000, 4.771, 4.699, 9.9484, -3.3376
0.61200, 4.777, 4.806, 10.0793, -3.3383
0.61400, 4.784, 4.795, 10.0793, -3.3389
0.61600, 4.791, 4.781, 10.2102, -3.3395
0.61800, 4.797, 4.727, 10.3411, -3.3401
0.62000, 4.803, 4.827, 10.3411, -3.3408
0.62200, 4.810, 4.819, 10.4720, -3.3414
0.62400, 4.816, 4.795, 10.6029, -3.3420
0.62600, 4.822, 4.730, 10.7338, -3.3427
0.62800, 4.828, 4.852, 10.7338, -3.3433
0.63000, 4.834, 4.851, 10.8647, -3.3433
0.63200, 4.840, 4.829, 10.9956, -3.3439
0.63400, 4.845, 4.803, 11.1265, -3.3445
0.63600, 4.851, 4.780, 11.2574, -3.3452
0.63800, 4.856, 4.873, 11.2574, -3.3458
0.64000, 4.862, 4.860, 11.3883, -3.3464
0.64200, 4.867, 4.846, 11.5192, -3.3471
0.64400, 4.872, 4.793, 11.6501, -3.3471
0.64600, 4.877, 4.904, 11.6501, -3.3477
0.64800, 4.882, 4.896, 11.7810, -3.3483
0.65000, 4.887, 4.903, 11.9119, -3.3489
0.65200, 4.892, 4.860, 12.0428, -3.3489
0.65400, 4.897, 4.839, 12.1737, -3.3496
0.65600, 4.901, 4.844, 12.3046, -3.3502
0.65800, 4.906, 4.931, 12.3046, -3.3508
0.66000, 4.910, 4.938, 12.4355, -3.3508
0.66200, 4.914, 4.908, 12.5664, -3.3515
0.66400, 4.919, 4.921, 12.6973, -3.3521
0.66600, 4.923, 4.837, 12.8282, -3.3521
0.66800, 4.927, 4.945, 12.9591, -3.3527
0.67000, 4.931, 4.948, 12.9591, -3.3527
0.67200, 4.934, 4.956, 13.0900, -3.3533
0.67400, 4.938, 4.960, 13.2209, -3.3533
0.67600, 4.942, 4.922, 13.3518, -3.3540
0.67800, 4.945, 4.920, 13.4827, -3.3540
0.68000, 4.948, 4.838, 13.6136, -3.3546
0.68200, 4.952, 4.949, 13.7445, -3.3546
0.68400, 4.955, 4.979, 13.7445, -3.3552
0.68600, 4.958, 4.989, 13.8754, -3.3552
0.68800, 4.961, 4.994, 14.0063, -3.3558
0.69000, 4.964, 4.962, 14.1372, -3.3558
0.69200, 4.966, 4.975, 14.2681, -3.3558
0.69400, 4.969, 4.938, 14.3990, -3.3558
0.69600, 4.972, 4.917, 14.5299, -3.3565
0.69800, 4.974, 4.872, 14.6608, -3.3565
0.70000, 4.976, 4.879, 14.7917, -3.3565
0.70200, 4.979, 5.029, 14.7917, -3.3565
0.70400, 4.981, 5.008, 14.9226, -3.3571
0.70600, 4.983, 5.029, 15.0535, -3.3571
0.70800, 4.984, 5.017, 15.1844, -3.3571
0.71000, 4.986, 4.996, 15.3153, -3.3571
0.71200, 4.988, 5.002, 15.4462, -3.3571
0.71400, 4.990, 5.006, 15.5771, -3.3571
0.71600, 4.991, 4.998, 15.7080, -3.3571
0.71800, 4.992, 4.992, 15.8389, -3.3571
0.72000, 4.994, 4.960, 15.9698, -3.3571
0.72200, 4.995, 4.960, 16.1007, -3.3571
0.72400, 4.996, 4.930, 16.2316, -3.3571
0.72600, 4.997, 4.952, 16.3625, -3.3571
0.72800, 4.997, 4.954, 16.4934, -3.3571
0.73000, 4.998, 4.970, 16.6243, -3.3571
0.73200, 4.999, 4.903, 16.7552, -3.3571
0.73400, 4.999, 4.959, 16.8861, -3.3571
0.73600, 5.000, 4.922, 17.0170, -3.3571
0.73800, 5.000, 4.944, 17.1479, -3.3571
0.74000, 5.000, 4.949, 17.2788, -3.3571
0.74200, 5.000, 4.959, 17.4097, -3.3571
0.74400, 5.000, 4.919, 17.5406, -3.3571
0.74600, 5.000, 4.958, 17.6715, -3.3571
0.74800, 4.999, 4.933, 17.8024, -3.3571
0.75000, 4.999, 4.986, 17.9333, -3.3565
0.75200, 4.999, 4.959, 18.0642, -3.3565
0.75400, 4.998, 4.994, 18.1951, -3.3565
0.75600, 4.997, 4.969, 18.3260, -3.3565
0.75800, 4.996, 4.990, 18.4569, -3.3565
0.76000, 4.995, 4.991, 18.5878, -3.3565
0.76200, 4.994, 5.014, 18.7187, -3.3558
0.76400, 4.993, 5.010, 18.8496, -3.3558
0.76600, 4.992, 5.031, 18.9805, -3.3558
0.76800, 4.990, 5.017, 19.1114, -3.3558
0.77000, 4.989, 5.017, 19.2423, -3.3552
0.77200, 4.987, 5.047, 19.3732, -3.3552
0.77400, 4.985, 5.049, 19.5041, -3.3546
0.77600, 4.984, 4.991, 19.7659, -3.3546
0.77800, 4.982, 4.899, 19.8968, -3.3546
0.78000, 4.979, 4.961, 20.0277, -3.3540
0.78200, 4.977, 4.914, 20.1586, -3.3540
0.78400, 4.975, 4.963, 20.2895, -3.3533
0.78600, 4.973, 4.974, 20.4204, -3.3533
0.78800, 4.970, 5.004, 20.5513, -3.3527
0.79000, 4.967, 5.005, 20.6822, -3.3527
0.79200, 4.965, 4.999, 20.8131, -3.3521
0.79400, 4.962, 5.016, 20.9440, -3.3515
0.79600, 4.959, 5.033, 21.0749, -3.3515
0.79800, 4.956, 4.943, 21.3367, -3.3508
0.80000, 4.952, 4.885, 21.4676, -3.3502
0.80200, 4.949, 4.931, 21.5984, -3.3502
0.80400, 4.945, 4.937, 21.7293, -3.3496
0.80600, 4.942, 4.989, 21.8602, -3.3489
0.80800, 4.938, 4.985, 21.9911, -3.3483
0.81000, 4.934, 5.009, 22.1220, -3.3483
0.81200, 4.930, 4.968, 22.3838, -3.3477
0.81400, 4.926, 4.867, 22.5147, -3.3471
0.81600, 4.922, 4.933, 22.6456, -3.3464
0.81800, 4.918, 4.949, 22.7765, -3.3464
0.82000, 4.914, 4.976, 22.9074, -3.3458
0.82200, 4.909, 4.963, 23.1692, -3.3452
0.82400, 4.905, 4.843, 23.3001, -3.3445
0.82600, 4.900, 4.867, 23.4310, -3.3439
0.82800, 4.895, 4.912, 23.5619, -3.3439
0.83000, 4.890, 4.944, 23.6928, -3.3433
0.83200, 4.885, 4.955, 23.8237, -3.3427
0.83400, 4.880, 4.827, 24.0855, -3.3420
0.83600, 4.874, 4.856, 24.2164, -3.3414
0.83800, 4.869, 4.898, 24.3473, -3.3408
0.84000, 4.863, 4.932, 24.4782, -3.3408
0.84200, 4.858, 4.918, 24.7400, -3.3401
0.84400, 4.852, 4.817, 24.8709, -3.3395
0.84600, 4.846, 4.859, 25.0018, -3.3389
0.84800, 4.840, 4.893, 25.1327, -3.3383
0.85000, 4.834, 4.912, 25.3945, -3.3376
0.85200, 4.828, 4.823, 25.5254, -3.3370
0.85400, 4.821, 4.826, 25.6563, -3.3364
0.85600, 4.815, 4.868, 25.7872, -3.3357
0.85800, 4.808, 4.883, 26.0490, -3.3351
0.86000, 4.802, 4.751, 26.1799, -3.3345
0.86200, 4.795, 4.797, 26.3108, -3.3339
0.86400, 4.788, 4.846, 26.4417, -3.3332
0.86600, 4.781, 4.871, 26.7035, -3.3326
0.86800, 4.774, 4.766, 26.8344, -3.3320
0.87000, 4.766, 4.799, 26.9653, -3.3313
0.87200, 4.759, 4.816, 27.0962, -3.3301
0.87400, 4.751, 4.707, 27.3580, -3.3295
0.87600, 4.744, 4.728, 27.4889, -3.3288
0.87800, 4.736, 4.787, 27.6198, -3.3282
0.88000, 4.728, 4.804, 27.8816, -3.3269
0.88200, 4.720, 4.681, 28.0125, -3.3263
0.88400, 4.712, 4.755, 28.1434, -3.3257
0.88600, 4.704, 4.773, 28.2743, -3.3251
0.88800, 4.696, 4.645, 28.5361, -3.3238
0.89000, 4.687, 4.710, 28.6670, -3.3232
0.89200, 4.679, 4.748, 28.7979, -3.3225
0.89400, 4.670, 4.638, 29.0597, -3.3213
0.89600, 4.661, 4.697, 29.1906, -3.3207
0.89800, 4.652, 4.723, 29.3215, -3.3200
0.90000, 4.643, 4.605, 29.5833, -3.3194
0.90200, 4.634, 4.671, 29.7142, -3.3182
0.90400, 4.625, 4.702, 29.9760, -3.3175
0.90600, 4.615, 4.588, 30.1069, -3.3169
0.90800, 4.606, 4.650, 30.2378, -3.3156
0.91000, 4.596, 4.581, 30.4996, -3.3150
0.91200, 4.586, 4.586, 30.6305, -3.3144
0.91400, 4.577, 4.646, 30.7614, -3.3138
0.91600, 4.567, 4.573, 31.0232, -3.3125
0.91800, 4.557, 4.578, 31.1541, -3.3119
0.92000, 4.546, 4.636, 31.2850, -3.3112
0.92200, 4.536, 4.551, 31.5468, -3.3106
0.92400, 4.526, 4.593, 31.6777, -3.3094
0.92600, 4.515, 4.495, 31.9395, -3.3087
0.92800, 4.504, 4.550, 32.0704, -3.3081
0.93000, 4.494, 4.575, 32.2013, -3.3068
0.93200, 4.483, 4.478, 32.4631, -3.3062
0.93400, 4.472, 4.518, 32.5940, -3.3056
0.93600, 4.461, 4.433, 32.8558, -3.3043
0.93800, 4.449, 4.485, 32.9867, -3.3037
0.94000, 4.438, 4.533, 33.2485, -3.3024
0.94200, 4.427, 4.433, 33.3794, -3.3018
0.94400, 4.415, 4.490, 33.5103, -3.3006
0.94600, 4.403, 4.392, 33.7721, -3.2999
0.94800, 4.392, 4.460, 33.9030, -3.2987
0.95000, 4.380, 4.446, 34.1648, -3.2980
0.95200, 4.368, 4.402, 34.2957, -3.2968
0.95400, 4.355, 4.379, 34.5575, -3.2955
0.95600, 4.343, 4.379, 34.6884, -3.2949
0.95800, 4.331, 4.428, 34.8193, -3.2936
0.96000, 4.318, 4.313, 35.0811, -3.2930
0.96200, 4.306, 4.395, 35.2120, -3.2918
0.96400, 4.293, 4.313, 35.4738, -3.2911
0.96600, 4.280, 4.357, 35.6047, -3.2899
0.96800, 4.267, 4.233, 35.8665, -3.2892
0.97000, 4.254, 4.341, 35.9974, -3.2880
0.97200, 4.241, 4.257, 36.2592, -3.2874
0.97400, 4.228, 4.294, 36.3901, -3.2861
0.97600, 4.214, 4.194, 36.6519, -3.2855
0.97800, 4.201, 4.274, 36.7828, -3.2848
0.98000, 4.187, 4.211, 37.0446, -3.2836
0.98200, 4.174, 4.234, 37.1755, -3.2830
0.98400, 4.160, 4.144, 37.4373, -3.2817
